"Time (s)","X (rad/s)","Y (rad/s)","Z (rad/s)"
1.488340000E-1,-4.331756592E0,-2.234670639E0,1.690256596E-1
1.589050000E-1,-4.469125271E0,-1.390159488E0,1.461000293E-1
1.689760000E-1,-4.443155289E0,-8.955806494E-1,2.579903603E-1
1.790160000E-1,-4.212417603E0,-7.515596151E-1,4.983205795E-1
1.890870000E-1,-3.795881271E0,-6.128088832E-1,7.757210135E-1
1.991269999E-1,-3.244513273E0,-2.304314077E-1,9.122397900E-1
2.091980000E-1,-2.541879416E0,3.114622235E-1,9.137519598E-1
2.192690000E-1,-1.825084686E0,1.123016998E-1,1.016296625E0
2.293090000E-1,-9.352495670E-1,2.604717016E-1,9.780461192E-1
2.393800000E-1,-1.712749302E-1,2.477317005E-1,6.259002090E-1
2.494510000E-1,3.815578669E-2,-1.975898445E-1,4.453736246E-1
2.594910000E-1,7.748419791E-2,-2.217676193E-1,3.393602967E-1
2.695619999E-1,3.712505847E-2,1.666858494E-1,2.059170008E-1
2.796320000E-1,-5.837704614E-2,5.326886177E-1,4.257640615E-2
2.896730000E-1,-1.698534936E-1,7.054616809E-1,-1.211278290E-1
2.997440000E-1,-2.489467859E-1,7.829332948E-1,-2.744946480E-1
3.097840000E-1,-1.792976856E-1,8.876831532E-1,-3.936476707E-1
3.198550000E-1,2.483015880E-2,1.068055034E0,-4.490781724E-1
3.299250000E-1,2.418194711E-1,1.199926853E0,-4.871957302E-1
3.399659999E-1,3.492230475E-1,1.430555224E0,-4.487374127E-1
3.500370000E-1,4.654276669E-1,1.327363133E0,-1.977813542E-1
3.601070000E-1,6.040239334E-1,1.038229704E0,1.625922024E-1
3.701480000E-1,7.160524726E-1,8.826763630E-1,4.321440458E-1
3.802180000E-1,7.959446311E-1,9.348988533E-1,4.804620445E-1
3.902890000E-1,8.091675043E-1,1.047642112E0,2.674522996E-1
4.003290000E-1,6.884042025E-1,9.712536931E-1,-1.910665333E-1
4.104000001E-1,5.092509389E-1,6.889111996E-1,-7.951670885E-1
4.204410000E-1,4.266992211E-1,4.477025270E-1,-1.330191374E0
4.305110000E-1,2.650882304E-1,7.203808427E-2,-1.690140247E0
4.405820000E-1,7.423818111E-2,-5.169516206E-1,-1.833180308E0
4.506220000E-1,1.033296902E-2,-9.652522206E-1,-1.622070551E0
4.606930000E-1,1.039595343E-2,-1.546478748E0,-1.232707739E0
4.707640000E-1,7.711000741E-2,-2.321850538E0,-7.504106164E-1
4.808040000E-1,3.563343883E-1,-2.500570536E0,-3.062131405E-1
4.908750000E-1,5.478497148E-1,-2.329451323E0,-1.459890902E-1
5.009150000E-1,4.718195796E-1,-2.156221867E0,-1.441729963E-1
5.109860000E-1,3.436850309E-1,-1.891475320E0,-1.244120747E-1
5.210570000E-1,1.841039658E-1,-1.186989665E0,-9.800599888E-3
5.310970000E-1,7.935544848E-2,-4.980939031E-1,2.044914514E-1
5.411680000E-1,3.306078538E-2,-4.531563520E-1,3.952791691E-1
5.512390001E-1,-9.727990627E-2,-5.578055382E-1,4.595265985E-1
5.612790000E-1,-8.605448157E-2,-5.753703713E-1,4.641435742E-1
5.713500000E-1,-1.647886448E-2,-4.499067366E-1,4.652591646E-1
5.814210000E-1,2.934864722E-3,-2.347290814E-1,4.623123407E-1
5.914610000E-1,-1.743299142E-2,1.450805664E-1,4.431264102E-1
6.015320000E-1,-9.209346771E-2,5.704920292E-1,4.930882454E-1
6.115720000E-1,-2.439956516E-1,8.393373489E-1,6.287254691E-1
6.216430000E-1,-3.859483302E-1,8.690879941E-1,8.048570752E-1
6.317140000E-1,-4.825009406E-1,6.729054451E-1,9.304046035E-1
6.417540000E-1,-5.070396066E-1,2.945981920E-1,9.450260997E-1
6.518249999E-1,-4.238067567E-1,-1.708126217E-1,8.144115806E-1
6.618960000E-1,-2.328615040E-1,-4.812948704E-1,5.376304984E-1
6.719360000E-1,3.076773882E-2,-5.661751032E-1,2.048533559E-1
6.820070000E-1,2.887289822E-1,-4.408828914E-1,-1.057012528E-1
6.920780001E-1,3.883679509E-1,-3.281036019E-1,-2.664920092E-1
7.021180000E-1,3.209211528E-1,-2.178649008E-1,-2.170221061E-1
7.121890000E-1,1.654183716E-1,-1.675569862E-1,-6.211214885E-2
7.222289999E-1,1.836030185E-2,-1.894006580E-1,5.719555542E-2
7.323000000E-1,-7.004756480E-4,-2.666917145E-1,1.008990929E-1
7.423700000E-1,8.178158849E-2,-3.446750641E-1,8.641195297E-2
7.524110000E-1,1.112835556E-1,-4.146568179E-1,5.172268301E-2
7.624820000E-1,1.172910184E-1,-4.197498858E-1,-1.302020624E-3
7.725520000E-1,7.997667789E-2,-3.962858319E-1,-3.225754201E-2
7.825930000E-1,5.739723891E-2,-4.546065032E-1,6.771224737E-2
7.926629999E-1,1.283989698E-1,-4.840128720E-1,1.583449394E-1
8.027340000E-1,3.262719214E-1,-5.178372264E-1,1.913489997E-1
8.127750000E-1,4.471533298E-1,-7.319314480E-1,1.440251619E-1
8.228450000E-1,4.785739779E-1,-9.873769283E-1,7.745874673E-2
8.328860000E-1,4.526033401E-1,-1.215796471E0,8.700191975E-3
8.429560000E-1,3.977704644E-1,-1.427844644E0,-4.513534158E-2
8.530270000E-1,3.261700571E-1,-1.530831456E0,-3.690643981E-2
8.630679999E-1,1.897918135E-1,-1.569164991E0,-1.253228486E-1
8.731380000E-1,1.797365248E-1,-1.442194819E0,-2.343918234E-1
8.832090000E-1,5.832915008E-2,-1.363918662E0,-3.437493145E-1
8.932490000E-1,-1.330581158E-1,-1.181494713E0,-4.087757170E-1
9.033200000E-1,-3.796266019E-1,-7.736365795E-1,-3.246515691E-1
9.133910000E-1,-7.147521377E-1,-2.324697226E-1,1.805090532E-2
9.234310000E-1,-1.090106249E0,2.972292341E-2,2.542687953E-1
9.335019999E-1,-1.393036366E0,4.228531569E-2,2.812231779E-1
9.435730000E-1,-1.420537114E0,1.229956746E-1,2.281700522E-1
9.536130000E-1,-1.300265193E0,1.623521298E-1,1.835844815E-1
9.636840000E-1,-1.187034249E0,1.319661736E-1,2.038555741E-1
9.737240000E-1,-1.118444443E0,1.271240115E-1,2.837906480E-1
9.837950000E-1,-1.168177962E0,4.016727209E-2,3.989078999E-1
9.938660000E-1,-1.259230375E0,-6.332582980E-2,4.999612868E-1
1.003920708E0,-1.281201005E0,-1.200778857E-1,4.868903160E-1
1.013991708E0,-1.229212165E0,-1.447416842E-1,3.424734771E-1
1.024062708E0,-1.177939773E0,-3.072940111E-1,1.524632275E-1
1.034102708E0,-1.128823400E0,-5.488994718E-1,1.853285730E-2
1.044173708E0,-1.046034336E0,-7.822480798E-1,-3.051414713E-2
1.054244708E0,-9.589649439E-1,-1.002018213E0,4.006841034E-2
1.064284708E0,-9.037961364E-1,-1.275484681E0,2.389250547E-1
1.074355708E0,-8.491278291E-1,-1.551206231E0,5.303002000E-1
1.084395708E0,-7.774392962E-1,-1.803467751E0,8.172678947E-1
1.094466708E0,-6.777552962E-1,-2.133093119E0,1.096506596E0
1.104537708E0,-5.931673050E-1,-2.569769621E0,1.407437325E0
1.114577708E0,-5.478677750E-1,-3.138909578E0,1.723019838E0
1.124648708E0,-4.730274975E-1,-3.796499252E0,2.093394041E0
1.134718708E0,-3.390989900E-1,-4.549121857E0,2.531166315E0
1.144759708E0,-1.729972064E-1,-5.246369362E0,3.027679682E0
1.154830708E0,6.314076483E-2,-5.883238792E0,3.602797031E0
1.164900708E0,2.812839448E-1,-6.180887222E0,4.159323215E0
1.174941708E0,2.231612504E-1,-6.103543758E0,4.702139854E0
1.185011708E0,7.675749063E-2,-5.878365993E0,5.109853745E0
1.195052708E0,2.928371727E-2,-5.795593739E0,5.475327969E0
1.205123708E0,-2.092906833E-2,-6.051461697E0,5.956797600E0
1.215193708E0,-1.756624579E-1,-6.454568863E0,6.531677246E0
1.225234708E0,-3.219038546E-1,-6.750959396E0,7.134707928E0
1.235304708E0,-3.327676654E-1,-6.737612247E0,7.725070477E0
1.245375708E0,-2.204951197E-1,-6.327483654E0,8.228895187E0
1.255415708E0,2.606970668E-1,-5.842812061E0,8.600376129E0
1.265486708E0,6.283015013E-1,-5.190775394E0,8.612488747E0
1.275557708E0,9.912783504E-1,-4.715584755E0,8.530342102E0
1.285597708E0,1.230373740E0,-4.082864761E0,8.284370422E0
1.295668708E0,1.282851577E0,-3.467537403E0,7.994002342E0
1.305708708E0,1.354993224E0,-2.930540085E0,7.654774189E0
1.315779708E0,1.488245249E0,-2.542182446E0,7.160120487E0
1.325850708E0,1.746040463E0,-2.268877506E0,6.463535786E0
1.335890708E0,2.098440886E0,-2.083966255E0,5.672474861E0
1.345961708E0,2.362879038E0,-1.714938164E0,4.748653889E0
1.356032708E0,2.466315269E0,-1.241522431E0,3.725173473E0
1.366072708E0,2.257681608E0,-9.157551527E-1,2.644645214E0
1.376143708E0,1.681698203E0,-6.243171692E-1,1.668028593E0
1.386214708E0,7.365826368E-1,-4.755329490E-1,9.226956964E-1
1.396254708E0,-4.509507120E-1,-6.704821587E-1,4.317432940E-1
1.406325708E0,-1.055450320E0,-1.229077935E0,3.466900587E-1
1.416365708E0,-1.001804590E0,-2.250922680E0,3.466887176E-1
1.426436708E0,-7.292376161E-1,-3.780714512E0,2.414086759E-1
1.436507708E0,-2.295859903E-1,-4.915207386E0,9.412840754E-2
1.446547708E0,1.461918652E-2,-5.596141815E0,-8.354078233E-2
1.456618708E0,-1.957385838E-1,-5.731682301E0,-2.354546785E-1
1.466689708E0,-5.476604104E-1,-5.366942406E0,-3.792790174E-1
1.476729708E0,-6.489561796E-1,-4.597997665E0,-8.231294155E-1
1.486800708E0,-7.511196733E-1,-4.273602009E0,-1.199197412E0
1.496871708E0,-6.370338202E-1,-3.723404169E0,-1.801927686E0
1.506911708E0,-5.103213191E-1,-3.188979626E0,-2.123037577E0
1.516982708E0,-7.034201622E-1,-2.738393307E0,-2.103269815E0
1.527022708E0,-7.607669234E-1,-2.556334257E0,-2.060822010E0
1.537093708E0,-5.504658818E-1,-2.680065155E0,-2.782609701E0
1.547164708E0,2.264880762E-2,-2.443875790E0,-3.116271019E0
1.557204708E0,4.178589880E-1,-2.016228914E0,-3.185277462E0
1.567275708E0,-1.995097846E-4,-1.653128147E0,-2.787373304E0
1.577345708E0,-4.178284407E-1,-1.094094157E0,-2.486215830E0
1.587386708E0,-6.191395968E-2,-8.065941334E-1,-2.537455559E0
1.597457708E0,-7.243584096E-2,-1.113283038E0,-2.351415873E0
1.607527708E0,1.216931343E-1,-3.084512651E-1,-2.016910076E0
1.617568708E0,1.742929667E-1,8.649627566E-1,-1.500145316E0
1.627638708E0,-3.572571576E-1,1.754138112E0,-1.187510014E0
1.637679708E0,-9.767505527E-1,2.019057274E0,-1.309002161E0
1.647749708E0,-1.215667248E0,1.351097941E0,-1.076685667E0
1.657820708E0,-1.069025159E0,5.042781830E-1,-5.904937387E-1
1.667861708E0,-1.010819912E0,-2.897425592E-1,-9.853575379E-2
1.677931708E0,-1.041419387E0,-4.563629627E-1,1.879529953E-1
1.688002708E0,-1.104188323E0,3.510845900E-1,4.890706539E-1
1.698042708E0,-9.605991244E-1,1.394176841E0,1.202390909E0
1.708113708E0,-8.696836233E-1,1.911509037E0,1.884422421E0
1.718184708E0,-8.973767757E-1,1.640065551E0,2.372253895E0
1.728224708E0,-8.223081827E-1,7.062306404E-1,2.731428146E0
1.738295708E0,-5.647310019E-1,-3.085589111E-1,2.916790485E0
1.748335708E0,-2.666338086E-1,-1.149091125E0,2.886278868E0
1.758406708E0,-1.148887426E-1,-1.559051037E0,2.616627693E0
1.768477708E0,3.594380245E-2,-1.625140667E0,2.174646139E0
1.778517708E0,2.191173434E-1,-1.380527973E0,1.542505860E0
1.788588708E0,3.717522323E-1,-9.732024670E-1,7.702226043E-1
1.798659708E0,4.737507701E-1,-6.308389902E-1,8.438192308E-2
1.808699708E0,7.215810418E-1,-6.164531112E-1,-1.801663786E-1
1.818770708E0,1.244469404E0,-2.630734444E-1,3.090310097E-1
1.828841708E0,1.879864097E0,-3.042545617E-1,9.854419827E-1
1.838881708E0,2.327943563E0,-4.408073425E-1,1.525386572E0
1.848952708E0,2.649797678E0,-8.543409109E-1,2.022794724E0
1.858992708E0,1.549713016E0,-2.541344404E0,1.930983543E0
1.869063708E0,1.051554799E0,-2.803870916E0,1.790017962E0
1.879134708E0,3.463335037E-1,-3.240791559E0,1.612672925E0
1.889174708E0,-2.925829031E-2,-3.694452286E0,1.592449188E0
1.899245708E0,1.053559855E-1,-3.881499529E0,1.487070322E0
1.909316708E0,5.146423578E-1,-3.413322449E0,1.286045074E0
1.919356708E0,1.000841737E0,-2.484190941E0,1.098706007E0
1.929427708E0,1.247996807E0,-1.230922222E0,1.020052791E0
1.939498708E0,1.367235303E0,-1.200903356E-1,1.240585685E0
1.949538708E0,1.243262887E0,4.356137514E-1,1.512947798E0
1.959609708E0,1.024620056E0,1.102329969E0,1.847957253E0
1.969649708E0,6.791904569E-1,1.263581872E0,2.015840530E0
1.979720708E0,5.194937587E-1,1.054796696E0,2.176074028E0
1.989790708E0,6.673213840E-1,7.380612493E-1,2.537513018E0
1.999814833E0,8.753629923E-1,3.774199188E-1,3.021989107E0
2.009885833E0,1.621356368E0,6.916988492E-1,3.661756992E0
2.019955833E0,2.294489384E0,6.204901934E-1,4.518129826E0
2.029996833E0,2.705373764E0,2.859353274E-2,5.310219288E0
2.040066833E0,2.030422688E0,-1.057498336E0,5.146709919E0
2.050137833E0,1.388850093E0,-1.687378526E0,4.290514946E0
2.060178833E0,5.084120035E-1,-1.998070598E0,2.140798807E0
2.070248833E0,8.862653375E-2,-2.413087130E0,4.941445291E-1
2.080289833E0,7.170107961E-2,-2.518748283E0,-1.810956895E-1
2.090359833E0,2.820912749E-2,-1.953926802E0,-4.531293511E-1
2.100430833E0,-1.483020037E-1,-8.677930832E-1,-3.755006194E-1
2.110471833E0,-3.803454638E-1,3.981592953E-1,-2.565082312E-1
2.120541833E0,-6.267451048E-1,1.429977894E0,-2.119474113E-1
2.130612833E0,-7.614813447E-1,1.825166225E0,-1.906475276E-1
2.140652833E0,-7.069904208E-1,1.675930142E0,-1.976338029E-1
2.150723833E0,-5.245659351E-1,1.448127031E0,-2.157166749E-1
2.160794833E0,-3.479048610E-1,1.357714057E0,-2.516278028E-1
2.170834833E0,-1.921951175E-1,1.274712324E0,-2.548423707E-1
2.180905833E0,-2.150945812E-1,9.810229540E-1,1.984236538E-1
2.190945833E0,-4.520569742E-1,7.929950356E-1,1.020152807E0
2.201016833E0,-4.097771645E-1,1.248713613E0,1.345926881E0
2.211087833E0,-2.832820415E-1,1.858369231E0,1.333350301E0
2.221127833E0,-1.856593192E-1,2.228096247E0,1.121259332E0
2.231198833E0,-1.722619832E-1,1.999674082E0,7.724470496E-1
2.241269833E0,-1.476455629E-1,1.461100578E0,5.975516438E-1
2.251309833E0,-1.092537940E-1,1.292040110E0,6.699634790E-1
2.261380833E0,1.192598045E-1,1.514766932E0,8.636386395E-1
2.271451833E0,5.020765066E-1,1.915318727E0,1.190347552E0
2.281491833E0,7.634947896E-1,2.576024294E0,1.537623763E0
2.291562833E0,7.876474261E-1,3.212183952E0,1.837695479E0
2.301602833E0,5.084810257E-1,3.888876915E0,1.994416714E0
2.311673833E0,-3.583639115E-2,4.609301567E0,2.055568218E0
2.321744833E0,-5.600171089E-1,5.091706753E0,2.147647619E0
2.331784833E0,-9.625262618E-1,5.412759781E0,2.068578482E0
2.341855833E0,-1.438143969E0,5.934019089E0,1.977424860E0
2.351926833E0,-2.056087255E0,6.012373924E0,1.747730374E0
2.361966833E0,-2.164981842E0,4.845126629E0,1.488075376E0
2.372037833E0,-2.099779606E0,3.015822887E0,1.453854918E0
2.382107833E0,-1.948927402E0,1.474949956E0,1.260571003E0
2.392148833E0,-1.894313335E0,1.051291347E0,9.536496401E-1
2.402219833E0,-1.955078125E0,1.593064308E0,5.624262094E-1
2.412259833E0,-1.928368807E0,2.088615656E0,2.743539214E-1
2.422330833E0,-1.692699790E0,2.516311407E0,1.432742272E-2
2.432400833E0,-1.174580455E0,2.707478046E0,-9.887183458E-2
2.442441833E0,-4.668622613E-1,2.559760809E0,-1.119285077E-2
2.452512833E0,2.502137125E-1,2.205333710E0,1.615447104E-1
2.462582833E0,9.526914358E-1,2.122290134E0,3.382148445E-1
2.472623833E0,1.502801299E0,2.296959162E0,3.228472769E-1
2.482693833E0,1.909561396E0,2.659156799E0,2.910296917E-1
2.492764833E0,2.187220097E0,3.081163168E0,2.993164957E-1
2.502804833E0,2.258065701E0,3.154903173E0,4.559769630E-1
2.512875833E0,1.796876073E0,2.375403404E0,4.980804920E-1
2.522946833E0,1.092233419E0,1.049663067E0,2.843064070E-1
2.532986833E0,4.125452042E-2,-1.136163846E-1,-3.445402086E-1
2.543057833E0,-8.143174052E-1,-2.858518064E-1,-7.709021568E-1
2.553097833E0,-1.165401101E0,1.658804864E-1,-8.391796350E-1
2.563168833E0,-1.209840536E0,5.356007814E-1,-6.665362120E-1
2.573239833E0,-9.057539105E-1,7.780992985E-1,-3.632848561E-1
2.583279833E0,-4.502561688E-1,6.949080229E-1,4.639453441E-2
2.593350833E0,-1.406664103E-1,3.736562133E-1,3.757647276E-1
2.603421833E0,-1.492271423E-1,4.297069833E-2,4.611129165E-1
2.613461833E0,-4.456520081E-1,-1.635372452E-2,4.201143980E-1
2.623532833E0,-9.474844933E-1,2.404285222E-1,3.697010279E-1
2.633603833E0,-1.432949901E0,6.366782784E-1,2.911702096E-1
2.643643833E0,-1.595946431E0,1.026256680E0,6.882926822E-2
2.653714833E0,-1.306047440E0,1.011524081E0,-5.379584618E-3
2.663754833E0,-9.239163995E-1,1.185611963E0,-7.285583019E-2
2.673825833E0,-5.334282517E-1,1.389566898E0,6.019695848E-2
2.683896833E0,-1.861560494E-1,1.564331770E0,2.051448375E-1
2.693936833E0,1.837712824E-1,2.466789961E0,5.144585371E-1
2.704007833E0,6.797288656E-1,2.365951538E0,5.389353633E-1
2.714078833E0,7.959351540E-1,1.672480941E0,3.401548564E-1
2.724118833E0,4.264143705E-1,1.297756314E0,1.595701724E-1
2.734189833E0,-1.282361895E-1,1.692790866E0,1.567954719E-1
2.744260833E0,-5.547041297E-1,2.321596861E0,3.449587226E-1
2.754300833E0,-7.257084250E-1,2.482030630E0,7.144389749E-1
2.764371833E0,-6.714079380E-1,1.875999212E0,1.070878506E0
2.774411833E0,-5.774052739E-1,1.040922880E0,1.279535532E0
2.784482833E0,-3.779113293E-1,5.689310431E-1,1.400042295E0
2.794553833E0,-1.580018550E-1,3.491208851E-1,1.415008426E0
2.804593833E0,-4.283028841E-1,-2.788098752E-1,1.231350780E0
2.814664833E0,-1.364662647E0,-1.238755226E0,5.113977194E-1
2.824734833E0,-2.400680780E0,-1.354837656E0,-3.113155961E-1
2.834775833E0,-2.982434511E0,-2.665496767E-1,-7.999269962E-1
2.844846833E0,-2.888055563E0,9.754029512E-1,-9.394217730E-1
2.854916833E0,-2.538162470E0,1.533447146E0,-1.051831603E0
2.864957833E0,-2.313277245E0,1.297396302E0,-5.946869254E-1
2.875027833E0,-1.947561741E0,1.313711524E0,-5.992412195E-2
2.885068833E0,-1.454042196E0,1.646071672E0,2.053656131E-1
2.895138833E0,-1.144985914E0,1.904112697E0,3.538742959E-1
2.905209833E0,-8.846048713E-1,1.968511939E0,4.007547200E-1
2.915250833E0,-6.926264167E-1,1.637020588E0,3.867902458E-1
2.925320833E0,-5.894659758E-1,1.367238164E0,3.531332016E-1
2.935391833E0,-4.174240828E-1,1.121117830E0,4.082019925E-1
2.945431833E0,-1.751869768E-1,1.057742596E0,3.006273210E-1
2.955502833E0,-3.439599276E-2,9.808419347E-1,-6.180084310E-3
2.965573833E0,1.774667203E-1,8.911626339E-1,-3.130558729E-1
2.975613833E0,4.019897282E-1,7.353240848E-1,-4.469931424E-1
2.985684833E0,4.256766737E-1,5.800591707E-1,-4.996006787E-1
2.995724833E0,3.116362691E-1,4.819757044E-1,-5.872153044E-1
3.005787958E0,3.561179638E-1,3.685290217E-1,-6.467896700E-1
3.015858958E0,4.555534124E-1,1.109730452E-1,-5.367363095E-1
3.025898958E0,4.522774816E-1,2.448130026E-2,-2.997767329E-1
3.035969958E0,6.361516118E-1,-5.457606539E-2,-3.317065164E-2
3.046040958E0,8.295317292E-1,-1.475568488E-2,2.120303214E-1
3.056080958E0,9.739041924E-1,1.719152480E-1,3.522098958E-1
3.066151958E0,9.395336509E-1,2.441532165E-1,2.262833863E-1
3.076222958E0,5.224022865E-1,-2.156551629E-1,-1.469263583E-1
3.086262958E0,9.092835337E-2,-6.360353827E-1,-2.788713276E-1
3.096333958E0,2.438858151E-1,-3.574347794E-1,5.508669466E-2
3.106373958E0,1.095967889E0,4.705616832E-1,7.770842910E-1
3.116444958E0,1.796141148E0,8.921381235E-1,1.440677285E0
3.126515958E0,1.945654511E0,3.719055653E-1,1.457404613E0
3.136555958E0,2.144442320E0,-4.297472835E-1,9.406074286E-1
3.146626958E0,2.718573570E0,-6.484026909E-1,1.142672151E-1
3.156697958E0,3.174910307E0,-6.145026088E-1,-9.308604598E-1
3.166737958E0,3.246745110E0,-3.350065351E-1,-1.814084530E0
3.176808958E0,3.229282618E0,3.335706294E-1,-2.385326624E0
3.186879958E0,3.113610029E0,1.468937755E0,-2.512924194E0
3.196919958E0,2.665703535E0,2.012324810E0,-2.172330856E0
3.206990958E0,1.899232864E0,1.430283070E0,-1.616689444E0
3.217030958E0,9.892165661E-1,6.844610572E-1,-1.175262928E0
3.227101958E0,1.215424836E-1,4.803054929E-1,-8.218553066E-1
3.237171958E0,-7.773326039E-1,6.605712771E-1,-6.078377962E-1
3.247212958E0,-1.739949226E0,1.178796291E0,-4.579343200E-1
3.257283958E0,-2.314165115E0,1.491212726E0,-4.902015030E-1
3.267353958E0,-2.497596264E0,1.105900407E0,-5.147159100E-1
3.277394958E0,-1.999899626E0,4.076956809E-1,-4.386384487E-1
3.287464958E0,-1.029283881E0,-2.115193605E-1,-7.849705219E-2
3.297535958E0,-1.079755090E-2,-4.968246818E-1,5.777072310E-1
3.307576958E0,7.551920414E-1,-2.826258540E-1,1.028259397E0
3.317646958E0,1.093157053E0,-2.791448236E-1,1.420595169E0
3.327687958E0,1.156803966E0,-2.836183906E-1,1.737169981E0
3.337757958E0,1.072429180E0,-1.343308985E-1,2.024960756E0
3.347828958E0,9.181226492E-1,6.991545856E-2,2.136999369E0
3.357869958E0,8.602667451E-1,1.065730974E-1,2.120434761E0
3.367939958E0,9.471393228E-1,-3.331423178E-2,1.891882777E0
3.378010958E0,1.050283313E0,-3.478376195E-2,1.428340197E0
3.388050958E0,1.042337418E0,5.226724967E-2,9.537423849E-1
3.398121958E0,8.153093457E-1,1.161429137E-1,5.449969769E-1
3.408192958E0,4.241793752E-1,5.143342540E-2,2.323384136E-1
3.418232958E0,-1.107521877E-1,-1.687000096E-1,1.171958447E-1
3.428303958E0,-3.649818301E-1,-1.848901659E-1,1.040472910E-1
3.438343958E0,-1.743400395E-1,3.388602734E-1,2.732169330E-1
3.448414958E0,1.557316035E-1,1.009648204E0,5.493294597E-1
3.458485958E0,2.907943428E-1,1.379299521E0,1.005023479E0
3.468525958E0,2.521335185E-1,1.264653563E0,1.488650680E0
3.478596958E0,1.532833129E-1,7.151787877E-1,1.882384896E0
3.488667958E0,1.038047150E-1,4.074739516E-1,2.287546635E0
3.498707958E0,-7.066995651E-2,5.921635032E-1,2.747896194E0
3.508778958E0,-3.766626418E-1,1.031915545E0,2.952540159E0
3.518849958E0,-8.027622104E-1,1.532163501E0,2.759757757E0
